wavelength		 flux
1.211000082897151515e+03 1.260557016872088434e-14
1.211006555497110185e+03 1.549514411340866366e-14
1.211013028097068855e+03 1.712049524036023776e-14
1.211019500533412838e+03 1.772739138104859815e-14
1.211025972969757277e+03 1.805012985689455254e-14
1.211032445242834001e+03 1.825195323162195927e-14
1.211038917515910725e+03 1.837641375152374171e-14
1.211045389626068754e+03 1.845942194097166931e-14
1.211051861736226556e+03 1.852311574175175429e-14
1.211058333683816045e+03 1.857577145962004577e-14
1.211064805631405534e+03 1.862864638691907627e-14
1.211071277416778230e+03 1.868175410274635175e-14
1.211077749202150699e+03 1.873508463790400198e-14
1.211084220825659486e+03 1.878864507276231698e-14
1.211090692449168500e+03 1.884243998491317182e-14
1.211097163911168082e+03 1.889646189980131734e-14
1.211103635373167663e+03 1.895071386293526774e-14
1.211110106674013878e+03 1.900520002674848304e-14
1.211116577974859865e+03 1.905992373925798561e-14
1.211123049114909918e+03 1.911487494090635979e-14
1.211129520254960426e+03 1.917007968536392929e-14
1.211135991234572657e+03 1.922551401174095484e-14
1.211142462214185571e+03 1.928118025475721762e-14
1.211148933033720596e+03 1.933710663224699592e-14
1.211155403853256075e+03 1.939327027367599679e-14
1.211161874513075190e+03 1.944967979139968949e-14
1.211168345172894533e+03 1.950633036614759769e-14
1.211174815673359490e+03 1.956323392812676839e-14
1.211181286173825129e+03 1.962038820646463508e-14
1.211187756515300862e+03 1.967778386105083780e-14
1.211194226856776822e+03 1.973543271252780064e-14
1.211200697039627585e+03 1.979334149480897774e-14
1.211207167222479029e+03 1.985150695050152025e-14
1.211213637247071119e+03 1.990991664488134478e-14
1.211220107271663892e+03 1.996858357952256097e-14
1.211226577138365883e+03 2.002751653940597187e-14
1.211233047005067419e+03 2.008670556653400804e-14
1.211239516714247202e+03 2.014614943741440139e-14
1.211245986423426757e+03 2.020586868915726043e-14
1.211252455975454041e+03 2.026585268591074273e-14
1.211258925527481324e+03 2.032609842590116766e-14
1.211265394922727410e+03 2.038661522732775341e-14
1.211271864317973495e+03 2.044740980956218369e-14
1.211278333556809912e+03 2.050847711609951081e-14
1.211284802795646556e+03 2.056980910344437243e-14
1.211291271878447333e+03 2.063141504169269079e-14
1.211297740961248110e+03 2.069331020362330929e-14
1.211304209888387049e+03 2.075547956834232187e-14
1.211310678815525989e+03 2.081792718623868197e-14
1.211317147587378486e+03 2.088065141440046447e-14
1.211323616359230755e+03 2.094367146045651885e-14
1.211330084976172884e+03 2.100697646913116779e-14
1.211336553593115468e+03 2.107057359581116090e-14
1.211343022055525580e+03 2.113445319017471565e-14
1.211349490517935237e+03 2.119862517641637093e-14
1.211355958826190545e+03 2.126308786949819941e-14
1.211362427134445852e+03 2.132784752943866245e-14
1.211368895288925842e+03 2.139289709499082784e-14
1.211375363443406059e+03 2.145824575818132016e-14
1.211381831444491354e+03 2.152388568070838483e-14
1.211388299445577331e+03 2.158982689155039624e-14
1.211394767293649238e+03 2.165608420044827878e-14
1.211401235141721145e+03 2.172263925199682866e-14
1.211407702837161196e+03 2.178950814479813097e-14
1.211414170532601474e+03 2.185668880832020195e-14
1.211420638075793249e+03 2.192417188373459640e-14
1.211427105618984569e+03 2.199197288651384632e-14
1.211433573010311420e+03 2.206007695342568831e-14
1.211440040401638726e+03 2.212849697207821333e-14
1.211446507641485368e+03 2.219724046721858302e-14
1.211452974881332239e+03 2.226631240884234256e-14
1.211459441970084526e+03 2.233570255442998566e-14
1.211465909058836587e+03 2.240542406620665622e-14
1.211472375996880601e+03 2.247546622489310682e-14
1.211478842934924387e+03 2.254583214491616714e-14
1.211485309722646434e+03 2.261652457280213975e-14
1.211491776510368936e+03 2.268755709800747653e-14
1.211498243148157599e+03 2.275892902853352749e-14
1.211504709785946488e+03 2.283062979068095817e-14
1.211511176274190120e+03 2.290267605393082286e-14
1.211517642762433525e+03 2.297506624611694293e-14
1.211524109101521390e+03 2.304779815307158204e-14
1.211530575440609482e+03 2.312088260701435459e-14
1.211537041630931299e+03 2.319431318887974950e-14
1.211543507821253115e+03 2.326808641236041111e-14
1.211549973863199284e+03 2.334221057545166882e-14
1.211556439905146135e+03 2.341668280287650280e-14
1.211562905799108194e+03 2.349151407078314309e-14
1.211569371693070480e+03 2.356671244291158725e-14
1.211575837439439965e+03 2.364226321751014074e-14
1.211582303185809451e+03 2.371817940713849550e-14
1.211588768784979493e+03 2.379446606065290803e-14
1.211595234384149080e+03 2.387112224897904837e-14
1.211601699836511898e+03 2.394814471430695908e-14
1.211608165288874943e+03 2.402555139004341321e-14
1.211614630594824121e+03 2.410332698747169931e-14
1.211621095900773525e+03 2.418148442277041188e-14
1.211627561060703329e+03 2.426002011799043532e-14
1.211634026220633586e+03 2.433892998386721118e-14
1.211640491234938509e+03 2.441823346291974870e-14
1.211646956249243885e+03 2.449792630607995053e-14
1.211653421118319784e+03 2.457800650254596045e-14
1.211659885987395455e+03 2.465848749335519122e-14
1.211666350711636824e+03 2.473935970159346964e-14
1.211672815435878192e+03 2.482063392813603178e-14
1.211679280015681570e+03 2.490231056445356202e-14
1.211685744595484948e+03 2.498438273573867222e-14
1.211692209031246875e+03 2.506685711337986840e-14
1.211698673467008575e+03 2.514975144950184797e-14
1.211705137759125591e+03 2.523305528832132994e-14
1.211711602051242608e+03 2.531678035031803746e-14
1.211718066200111934e+03 2.540091036520366214e-14
1.211724530348981261e+03 2.548547093811921220e-14
1.211730994355000803e+03 2.557044703031808306e-14
1.211737458361020117e+03 2.565584463300866180e-14
1.211743922224587322e+03 2.574167829824933161e-14
1.211750386088154528e+03 2.582795607232329243e-14
1.211756849809667983e+03 2.591464922863760970e-14
1.211763313531181439e+03 2.600178973707039076e-14
1.211769777111040185e+03 2.608937655397721202e-14
1.211776240690898476e+03 2.617738982503581822e-14
1.211782704129500416e+03 2.626585122204830298e-14
1.211789167568101902e+03 2.635476653056429225e-14
1.211795630865846761e+03 2.644412066971472594e-14
1.211802094163591391e+03 2.653393964410367560e-14
1.211808557320877753e+03 2.662421920520649332e-14
1.211815020478164115e+03 2.671495295725534329e-14
1.211821483495392386e+03 2.680616886002138770e-14
1.211827946512620201e+03 2.689782882728533290e-14
1.211834409390189194e+03 2.698996907625316906e-14
1.211840872267758186e+03 2.708258124809845449e-14
1.211847335006068533e+03 2.717567266208663530e-14
1.211853797744378880e+03 2.726925889535086195e-14
1.211860260343830760e+03 2.736332547300870177e-14
1.211866722943282412e+03 2.745785951515554298e-14
1.211873185404274636e+03 2.755290667919377516e-14
1.211879647865267771e+03 2.764844236747464999e-14
1.211886110188202110e+03 2.774446999831561174e-14
1.211892572511136450e+03 2.784099150664268780e-14
1.211899034696412855e+03 2.793802824005669112e-14
1.211905496881689032e+03 2.803555573792145398e-14
1.211911958929707453e+03 2.813361091671552620e-14
1.211918420977725873e+03 2.823217376974660043e-14
1.211924882888887396e+03 2.833126051274164771e-14
1.211931344800049374e+03 2.843087863504188109e-14
1.211937806574753949e+03 2.853102038546159509e-14
1.211944268349458753e+03 2.863166917268401504e-14
1.211950729988107241e+03 2.873286682707810102e-14
1.211957191626755503e+03 2.883461708401124774e-14
1.211963653129748764e+03 2.893689988427634291e-14
1.211970114632741570e+03 2.903970651279943319e-14
1.211976576000478872e+03 2.914308382823653412e-14
1.211983037368216628e+03 2.924699744448642179e-14
1.211989498601098830e+03 2.935147086927482649e-14
1.211995959833981487e+03 2.945651304259177857e-14
1.212002420932409223e+03 2.956212567762753376e-14
1.212008882030836730e+03 2.966831366474743950e-14
1.212015342995210176e+03 2.977506589408186651e-14
1.212021803959583394e+03 2.988240618903116389e-14
1.212028264790302046e+03 2.999031318095225985e-14
1.212034725621020925e+03 3.009880050207845662e-14
1.212041186318484506e+03 3.020788026845266792e-14
1.212047647015948542e+03 3.031756003792862277e-14
1.212054107580557456e+03 3.042784393379231737e-14
1.212060568145166371e+03 3.053870275276242377e-14
1.212067028577319888e+03 3.065017089515743363e-14
1.212073489009473178e+03 3.076227124348050578e-14
1.212079949309570566e+03 3.087499268350424865e-14
1.212086409609667953e+03 3.098831524169176850e-14
1.212092869778108479e+03 3.110226076087464294e-14
1.212099329946548551e+03 3.121687176431246910e-14
1.212105789983730574e+03 3.133208613312861504e-14
1.212112250020912370e+03 3.144793845807790240e-14
1.212118709927234477e+03 3.156444198043938156e-14
1.212125169833556583e+03 3.168159976227027814e-14
1.212131629609416905e+03 3.179940521146125974e-14
1.212138089385277453e+03 3.191785675610892675e-14
1.212144549031074575e+03 3.203698412372943955e-14
1.212151008676871470e+03 3.215679486601831921e-14
1.212157468193002387e+03 3.227728055142748607e-14
1.212163927709133304e+03 3.239844889979790441e-14
1.212170387095995238e+03 3.252030668490206834e-14
1.212176846482857172e+03 3.264283053514366366e-14
1.212183305740847345e+03 3.276605031216567716e-14
1.212189764998836836e+03 3.288995035338679784e-14
1.212196224128350877e+03 3.301456451547264656e-14
1.212202683257865374e+03 3.313989600009350634e-14
1.212209142259299824e+03 3.326595084169886241e-14
1.212215601260734047e+03 3.339270307831014900e-14
1.212222060134484536e+03 3.352020120285922362e-14
1.212228519008234571e+03 3.364843895152696880e-14
1.212234977754696047e+03 3.377739018363083838e-14
1.212241436501157523e+03 3.390708438103777052e-14
1.212247895120724479e+03 3.403754061111086642e-14
1.212254353740291208e+03 3.416876535768772494e-14
1.212260812233357228e+03 3.430072365880670144e-14
1.212267270726423476e+03 3.443345249913296436e-14
1.212273729093383054e+03 3.456694934549130639e-14
1.212280187460342631e+03 3.470123717191362778e-14
1.212286645701587986e+03 3.483632016144422091e-14
1.212293103942833341e+03 3.497216398468291179e-14
1.212299562058757374e+03 3.510881520121766054e-14
1.212306020174680953e+03 3.524626139748418283e-14
1.212312478165675202e+03 3.538454362700479043e-14
1.212318936156669224e+03 3.552363950044838934e-14
1.212325394023124773e+03 3.566356149209086376e-14
1.212331851889580093e+03 3.580430436062395509e-14
1.212338309631887569e+03 3.594586981619618501e-14
1.212344767374195271e+03 3.608827831490045746e-14
1.212351224992744392e+03 3.623157449288333665e-14
1.212357682611293512e+03 3.637568847023679742e-14
1.212364140106473997e+03 3.652065312066010713e-14
1.212370597601654481e+03 3.666649663418841392e-14
1.212377054973854229e+03 3.681322266297129842e-14
1.212383512346053976e+03 3.696082162596804971e-14
1.212389969595661341e+03 3.710931406103136263e-14
1.212396426845268479e+03 3.725872520534213406e-14
1.212402883972669997e+03 3.740901114947432027e-14
1.212409341100071515e+03 3.756022030875992280e-14
1.212415798105653266e+03 3.771234067799657655e-14
1.212422255111235245e+03 3.786538396167468077e-14
1.212428711995383537e+03 3.801939059368793360e-14
1.212435168879531602e+03 3.817432025230635140e-14
1.212441625642630697e+03 3.833021690758269632e-14
1.212448082405729110e+03 3.848704728683729431e-14
1.212454539048162587e+03 3.864485355782040588e-14
1.212460995690596064e+03 3.880363634608219434e-14
1.212467452212747048e+03 3.896336691776688473e-14
1.212473908734897805e+03 3.912410147531723468e-14
1.212480365137148510e+03 3.928584688886185411e-14
1.212486821539398761e+03 3.944861200618968893e-14
1.212493277822130494e+03 3.961236522014364967e-14
1.212499734104861773e+03 3.977716440996327661e-14
1.212506190268454247e+03 3.994299073105023981e-14
1.212512646432046949e+03 4.010985398332416837e-14
1.212519102476880107e+03 4.027777072334873702e-14
1.212525558521712810e+03 4.044673859849297989e-14
1.212532014448164546e+03 4.061676114144881635e-14
1.212538470374616509e+03 4.078783458143120583e-14
1.212544926183064717e+03 4.096000288308481458e-14
1.212551381991513153e+03 4.113331090623356394e-14
1.212557837682333911e+03 4.130769235282235191e-14
1.212564293373155124e+03 4.148320204159336147e-14
1.212570748946724507e+03 4.165983036790690577e-14
1.212577204520293435e+03 4.183759483561392609e-14
1.212583659976985018e+03 4.201649412807991152e-14
1.212590115433676374e+03 4.219651991475645538e-14
1.212596570773864187e+03 4.237772750348746620e-14
1.212603026114052000e+03 4.256012603020072559e-14
1.212609481338107798e+03 4.274368166217572186e-14
1.212615936562163597e+03 4.292842023690878886e-14
1.212622391670458001e+03 4.311436000462104260e-14
1.212628846778752859e+03 4.330154329378490468e-14
1.212635301771656714e+03 4.348993610596336712e-14
1.212641756764560569e+03 4.367954000224041288e-14
1.212648211642442448e+03 4.387039326518827696e-14
1.212654666520324554e+03 4.406251513169062717e-14
1.212661121283551893e+03 4.425587212513716066e-14
1.212667576046779459e+03 4.445052732358889646e-14
1.212674030695719466e+03 4.464648075163960197e-14
1.212680485344659246e+03 4.484373074519731397e-14
1.212686939879676402e+03 4.504228812806296746e-14
1.212693394414693557e+03 4.524219209186853347e-14
1.212699848836152114e+03 4.544338798125313297e-14
1.212706303257610671e+03 4.564594394102734423e-14
1.212712757565873517e+03 4.584986166399229686e-14
1.212719211874136590e+03 4.605513917308778235e-14
1.212725666069565250e+03 4.626181143873811164e-14
1.212732120264994137e+03 4.646988098971784723e-14
1.212738574347948543e+03 4.667935315694204631e-14
1.212745028430902948e+03 4.689023533747740714e-14
1.212751482401742578e+03 4.710258054357978944e-14
1.212757936372581753e+03 4.731638785038732370e-14
1.212764390231663810e+03 4.753166590745431930e-14
1.212770844090746095e+03 4.774838481415773614e-14
1.212777297838426421e+03 4.796659661717928612e-14
1.212783751586106973e+03 4.818626989205561569e-14
1.212790205222740951e+03 4.840750787404502112e-14
1.212796658859375384e+03 4.863024870278141583e-14
1.212803112385315899e+03 4.885454738026419890e-14
1.212809565911257323e+03 4.908041031760765571e-14
1.212816019326857258e+03 4.930783050238758800e-14
1.212822472742457421e+03 4.953682215988023255e-14
1.212828926048066478e+03 4.976745214864218593e-14
1.212835379353675762e+03 4.999968010337646267e-14
1.212841832549644096e+03 5.023353819521028085e-14
1.212848285745611975e+03 5.046905487410198821e-14
1.212854738832286102e+03 5.070622368871112349e-14
1.212861191918960230e+03 5.094508957080071804e-14
1.212867644896687125e+03 5.118559159797271509e-14
1.212874097874413565e+03 5.142784702963974872e-14
1.212880550743537015e+03 5.167181961582696331e-14
1.212887003612660465e+03 5.191752572321388731e-14
1.212893456373523804e+03 5.216503315589221644e-14
1.212899909134387599e+03 5.241429616463487696e-14
1.212906361787331889e+03 5.266532963509187101e-14
1.212912814440276406e+03 5.291820098216882054e-14
1.212919266985642935e+03 5.317293315546112572e-14
1.212925719531009008e+03 5.342947419820587714e-14
1.212932171969134743e+03 5.368789815691352423e-14
1.212938624407260704e+03 5.394818203204540329e-14
1.212945076738482840e+03 5.421041223744059922e-14
1.212951529069704748e+03 5.447454539320922272e-14
1.212957981294357751e+03 5.474058060995441966e-14
1.212964433519010754e+03 5.500857777290746931e-14
1.212970885637428410e+03 5.527852471119578170e-14
1.212977337755846520e+03 5.555050257594741488e-14
1.212983789768359884e+03 5.582452334446021202e-14
1.212990241780873930e+03 5.610048857322180976e-14
1.212996693687813604e+03 5.637857453887876018e-14
1.213003145594753505e+03 5.665869674069162871e-14
1.213009597396447361e+03 5.694090045863880502e-14
1.213016049198141900e+03 5.722527753295518273e-14
1.213022500894916675e+03 5.751177204437390136e-14
1.213028952591691450e+03 5.780040175797259663e-14
1.213035404183871378e+03 5.809125027626438761e-14
1.213041855776051079e+03 5.838434717737414346e-14
1.213048307263959487e+03 5.867961598686346093e-14
1.213054758751867439e+03 5.897710600615350191e-14
1.213061210135825149e+03 5.927692709335698528e-14
1.213067661519782632e+03 5.957905312835579486e-14
1.213074112800107969e+03 5.988349375678368950e-14
1.213080564080433533e+03 6.019029112464567593e-14
1.213087015257444818e+03 6.049943796191736231e-14
1.213093466434456104e+03 6.081098984908763360e-14
1.213099917508468479e+03 6.112498169279011899e-14
1.213106368582480854e+03 6.144140319582348111e-14
1.213112819553807412e+03 6.176024104530007334e-14
1.213119270525134425e+03 6.208160825955746457e-14
1.213125721394087577e+03 6.240553392148924818e-14
1.213132172263040957e+03 6.273200182248010041e-14
1.213138623029929477e+03 6.306102423930153954e-14
1.213145073796818451e+03 6.339266560431125254e-14
1.213151524461950657e+03 6.372694850685621155e-14
1.213157975127083546e+03 6.406383968381316130e-14
1.213164425690765256e+03 6.440344322426442168e-14
1.213170876254447194e+03 6.474575485886597073e-14
1.213177326716981952e+03 6.509079804980461187e-14
1.213183777179516710e+03 6.543856116382941826e-14
1.213190227541206013e+03 6.578918936791609666e-14
1.213196677902895090e+03 6.614266003326780131e-14
1.213203128164038617e+03 6.649892271264073450e-14
1.213209578425182599e+03 6.685817808353456862e-14
1.213216028586077755e+03 6.722034175968182213e-14
1.213222478746973366e+03 6.758546144892487140e-14
1.213228928807915963e+03 6.795355697479490986e-14
1.213235378868858561e+03 6.832467280542925379e-14
1.213241828830141458e+03 6.869883222501325416e-14
1.213248278791424582e+03 6.907608755760042229e-14
1.213254728653339498e+03 6.945645851779642911e-14
1.213261178515254414e+03 6.983999864314960835e-14
1.213267628278090569e+03 7.022679572516731380e-14
1.213274078040926497e+03 7.061676105603901492e-14
1.213280527704969472e+03 7.101002350201538566e-14
1.213286977369013130e+03 7.140662231895299645e-14
1.213293426934549188e+03 7.180652690841851165e-14
1.213299876500085475e+03 7.220980899631488875e-14
1.213306325967396560e+03 7.261651833242461565e-14
1.213312775434707191e+03 7.302664535097331429e-14
1.213319224804073201e+03 7.344033885049935638e-14
1.213325674173438983e+03 7.385756075292349257e-14
1.213332123445138222e+03 7.427829679848944242e-14
1.213338572716837234e+03 7.470275139826621291e-14
1.213345021891145279e+03 7.513089464752072920e-14
1.213351471065453097e+03 7.556266765534215941e-14
1.213357920142643252e+03 7.599827562934340349e-14
1.213364369219833179e+03 7.643764754346975535e-14
1.213370818200176245e+03 7.688081023755181964e-14
1.213377267180519311e+03 7.732779319281117055e-14
1.213383716064284727e+03 7.777879329171269162e-14
1.213390164948049915e+03 7.823371466431096244e-14
1.213396613735503479e+03 7.869269970303815598e-14
1.213403062522957271e+03 7.915571775759973128e-14
1.213409511214363192e+03 7.962287084822622877e-14
1.213415959905769114e+03 8.009422227847107995e-14
1.213422408501388645e+03 8.056967134157069474e-14
1.213428857097008859e+03 8.104949420160108665e-14
1.213435305597102115e+03 8.153359011765872199e-14
1.213441754097194917e+03 8.202204912916141153e-14
1.213448202502017239e+03 8.251500595821397598e-14
1.213454650906839788e+03 8.301236255289527428e-14
1.213461099216646744e+03 8.351428672472396441e-14
1.213467547526453473e+03 8.402084373212352767e-14
1.213473995741496083e+03 8.453210999046481036e-14
1.213480443956538465e+03 8.504796173678198282e-14
1.213486892077065932e+03 8.556855643840213035e-14
1.213493340197593625e+03 8.609402953797835079e-14
1.213499788223852647e+03 8.662440472355917944e-14
1.213506236250111442e+03 8.715963506493659424e-14
1.213512684182346902e+03 8.769999925415442525e-14
1.213519132114581453e+03 8.824534643766155232e-14
1.213525579953034139e+03 8.879588482988828022e-14
1.213532027791486826e+03 8.935160803805264950e-14
1.213538475536395936e+03 8.991264680184629616e-14
1.213544923281304818e+03 9.047905967033236632e-14
1.213551370932907048e+03 9.105075900259531117e-14
1.213557818584509050e+03 9.162802038331939081e-14
1.213564266143037457e+03 9.221076842190989182e-14
1.213570713701566092e+03 9.279927774381549962e-14
